# Partition function for "12C16O (26)".
# Temperature range: 1-9000K.
# Source: HITRAN database  https://hitran.iao.ru/partfun/index/mol/005.
#T,K           Q(T)

   1                 1.0119
   2                 1.1900
   3                 1.4944
   4                 1.8331
   5                 2.1824
   6                 2.5363
   7                 2.8926
   8                 3.2503
   9                 3.6089
  10                 3.9681
  11                 4.3278
  12                 4.6878
  13                 5.0480
  14                 5.4085
  15                 5.7691
  16                 6.1298
  17                 6.4906
  18                 6.8515
  19                 7.2125
  20                 7.5735
  21                 7.9346
  22                 8.2958
  23                 8.6569
  24                 9.0181
  25                 9.3794
  26                 9.7406
  27                10.1019
  28                10.4632
  29                10.8246
  30                11.1859
  31                11.5473
  32                11.9087
  33                12.2701
  34                12.6315
  35                12.9929
  36                13.3543
  37                13.7158
  38                14.0772
  39                14.4387
  40                14.8001
  41                15.1616
  42                15.5231
  43                15.8846
  44                16.2460
  45                16.6075
  46                16.9690
  47                17.3306
  48                17.6921
  49                18.0536
  50                18.4151
  51                18.7766
  52                19.1382
  53                19.4997
  54                19.8613
  55                20.2228
  56                20.5844
  57                20.9459
  58                21.3075
  59                21.6690
  60                22.0306
  61                22.3922
  62                22.7537
  63                23.1153
  64                23.4769
  65                23.8385
  66                24.2001
  67                24.5617
  68                24.9232
  69                25.2848
  70                25.6464
  71                26.0080
  72                26.3696
  73                26.7312
  74                27.0928
  75                27.4545
  76                27.8161
  77                28.1777
  78                28.5393
  79                28.9009
  80                29.2625
  81                29.6242
  82                29.9858
  83                30.3474
  84                30.7091
  85                31.0707
  86                31.4323
  87                31.7940
  88                32.1556
  89                32.5172
  90                32.8789
  91                33.2405
  92                33.6022
  93                33.9638
  94                34.3255
  95                34.6871
  96                35.0488
  97                35.4105
  98                35.7721
  99                36.1338
 100                36.4955
 101                36.8571
 102                37.2188
 103                37.5805
 104                37.9421
 105                38.3038
 106                38.6655
 107                39.0272
 108                39.3889
 109                39.7505
 110                40.1122
 111                40.4739
 112                40.8356
 113                41.1973
 114                41.5590
 115                41.9207
 116                42.2824
 117                42.6441
 118                43.0058
 119                43.3675
 120                43.7292
 121                44.0909
 122                44.4526
 123                44.8143
 124                45.1760
 125                45.5378
 126                45.8995
 127                46.2612
 128                46.6229
 129                46.9846
 130                47.3464
 131                47.7081
 132                48.0698
 133                48.4316
 134                48.7933
 135                49.1550
 136                49.5168
 137                49.8785
 138                50.2402
 139                50.6020
 140                50.9637
 141                51.3254
 142                51.6872
 143                52.0489
 144                52.4107
 145                52.7724
 146                53.1342
 147                53.4959
 148                53.8577
 149                54.2195
 150                54.5812
 151                54.9430
 152                55.3048
 153                55.6665
 154                56.0283
 155                56.3901
 156                56.7518
 157                57.1136
 158                57.4754
 159                57.8371
 160                58.1989
 161                58.5607
 162                58.9225
 163                59.2843
 164                59.6461
 165                60.0079
 166                60.3696
 167                60.7314
 168                61.0932
 169                61.4550
 170                61.8168
 171                62.1786
 172                62.5404
 173                62.9022
 174                63.2640
 175                63.6258
 176                63.9876
 177                64.3494
 178                64.7112
 179                65.0730
 180                65.4349
 181                65.7967
 182                66.1585
 183                66.5203
 184                66.8821
 185                67.2440
 186                67.6058
 187                67.9676
 188                68.3294
 189                68.6913
 190                69.0531
 191                69.4149
 192                69.7768
 193                70.1386
 194                70.5004
 195                70.8623
 196                71.2241
 197                71.5859
 198                71.9478
 199                72.3096
 200                72.6715
 201                73.0333
 202                73.3952
 203                73.7571
 204                74.1189
 205                74.4808
 206                74.8426
 207                75.2045
 208                75.5663
 209                75.9282
 210                76.2901
 211                76.6519
 212                77.0138
 213                77.3757
 214                77.7376
 215                78.0994
 216                78.4613
 217                78.8232
 218                79.1851
 219                79.5470
 220                79.9089
 221                80.2707
 222                80.6326
 223                80.9945
 224                81.3564
 225                81.7183
 226                82.0802
 227                82.4421
 228                82.8040
 229                83.1659
 230                83.5278
 231                83.8897
 232                84.2516
 233                84.6136
 234                84.9755
 235                85.3374
 236                85.6993
 237                86.0612
 238                86.4232
 239                86.7851
 240                87.1470
 241                87.5089
 242                87.8709
 243                88.2328
 244                88.5947
 245                88.9567
 246                89.3186
 247                89.6806
 248                90.0425
 249                90.4045
 250                90.7664
 251                91.1284
 252                91.4903
 253                91.8523
 254                92.2143
 255                92.5762
 256                92.9382
 257                93.3002
 258                93.6622
 259                94.0241
 260                94.3861
 261                94.7481
 262                95.1101
 263                95.4721
 264                95.8341
 265                96.1961
 266                96.5581
 267                96.9201
 268                97.2821
 269                97.6441
 270                98.0061
 271                98.3681
 272                98.7302
 273                99.0922
 274                99.4542
 275                99.8163
 276               100.1783
 277               100.5403
 278               100.9024
 279               101.2644
 280               101.6265
 281               101.9886
 282               102.3506
 283               102.7127
 284               103.0748
 285               103.4368
 286               103.7989
 287               104.1610
 288               104.5231
 289               104.8852
 290               105.2473
 291               105.6094
 292               105.9715
 293               106.3336
 294               106.6957
 295               107.0579
 296               107.4200
 297               107.7821
 298               108.1443
 299               108.5064
 300               108.8686
 301               109.2308
 302               109.5929
 303               109.9551
 304               110.3173
 305               110.6795
 306               111.0417
 307               111.4039
 308               111.7661
 309               112.1283
 310               112.4905
 311               112.8527
 312               113.2150
 313               113.5772
 314               113.9395
 315               114.3018
 316               114.6640
 317               115.0263
 318               115.3886
 319               115.7509
 320               116.1132
 321               116.4755
 322               116.8378
 323               117.2001
 324               117.5625
 325               117.9248
 326               118.2872
 327               118.6495
 328               119.0119
 329               119.3743
 330               119.7367
 331               120.0991
 332               120.4615
 333               120.8239
 334               121.1864
 335               121.5488
 336               121.9113
 337               122.2737
 338               122.6362
 339               122.9987
 340               123.3612
 341               123.7237
 342               124.0863
 343               124.4488
 344               124.8114
 345               125.1739
 346               125.5365
 347               125.8991
 348               126.2617
 349               126.6243
 350               126.9869
 351               127.3496
 352               127.7123
 353               128.0749
 354               128.4376
 355               128.8003
 356               129.1630
 357               129.5258
 358               129.8885
 359               130.2513
 360               130.6140
 361               130.9768
 362               131.3397
 363               131.7025
 364               132.0653
 365               132.4282
 366               132.7911
 367               133.1540
 368               133.5169
 369               133.8798
 370               134.2427
 371               134.6057
 372               134.9687
 373               135.3317
 374               135.6947
 375               136.0578
 376               136.4208
 377               136.7839
 378               137.1470
 379               137.5101
 380               137.8733
 381               138.2364
 382               138.5996
 383               138.9628
 384               139.3260
 385               139.6893
 386               140.0526
 387               140.4158
 388               140.7792
 389               141.1425
 390               141.5059
 391               141.8692
 392               142.2326
 393               142.5961
 394               142.9595
 395               143.3230
 396               143.6865
 397               144.0500
 398               144.4136
 399               144.7772
 400               145.1408
 401               145.5044
 402               145.8681
 403               146.2317
 404               146.5955
 405               146.9592
 406               147.3230
 407               147.6868
 408               148.0506
 409               148.4144
 410               148.7783
 411               149.1422
 412               149.5062
 413               149.8701
 414               150.2341
 415               150.5981
 416               150.9622
 417               151.3263
 418               151.6904
 419               152.0546
 420               152.4187
 421               152.7830
 422               153.1472
 423               153.5115
 424               153.8758
 425               154.2402
 426               154.6045
 427               154.9689
 428               155.3334
 429               155.6979
 430               156.0624
 431               156.4270
 432               156.7916
 433               157.1562
 434               157.5208
 435               157.8855
 436               158.2503
 437               158.6151
 438               158.9799
 439               159.3447
 440               159.7096
 441               160.0745
 442               160.4395
 443               160.8045
 444               161.1696
 445               161.5346
 446               161.8998
 447               162.2649
 448               162.6302
 449               162.9954
 450               163.3607
 451               163.7260
 452               164.0914
 453               164.4568
 454               164.8223
 455               165.1878
 456               165.5533
 457               165.9189
 458               166.2846
 459               166.6503
 460               167.0160
 461               167.3818
 462               167.7476
 463               168.1135
 464               168.4794
 465               168.8453
 466               169.2113
 467               169.5774
 468               169.9435
 469               170.3097
 470               170.6759
 471               171.0421
 472               171.4084
 473               171.7748
 474               172.1412
 475               172.5076
 476               172.8741
 477               173.2407
 478               173.6073
 479               173.9740
 480               174.3407
 481               174.7075
 482               175.0743
 483               175.4411
 484               175.8081
 485               176.1751
 486               176.5421
 487               176.9092
 488               177.2763
 489               177.6435
 490               178.0108
 491               178.3781
 492               178.7455
 493               179.1129
 494               179.4804
 495               179.8480
 496               180.2156
 497               180.5833
 498               180.9510
 499               181.3188
 500               181.6866
 501               182.0545
 502               182.4225
 503               182.7905
 504               183.1586
 505               183.5268
 506               183.8950
 507               184.2632
 508               184.6316
 509               185.0000
 510               185.3685
 511               185.7370
 512               186.1056
 513               186.4743
 514               186.8430
 515               187.2118
 516               187.5806
 517               187.9496
 518               188.3186
 519               188.6876
 520               189.0568
 521               189.4260
 522               189.7952
 523               190.1646
 524               190.5340
 525               190.9034
 526               191.2730
 527               191.6426
 528               192.0123
 529               192.3821
 530               192.7519
 531               193.1218
 532               193.4918
 533               193.8618
 534               194.2319
 535               194.6021
 536               194.9724
 537               195.3427
 538               195.7131
 539               196.0836
 540               196.4542
 541               196.8248
 542               197.1956
 543               197.5664
 544               197.9372
 545               198.3082
 546               198.6792
 547               199.0503
 548               199.4215
 549               199.7928
 550               200.1641
 551               200.5355
 552               200.9070
 553               201.2786
 554               201.6503
 555               202.0220
 556               202.3939
 557               202.7658
 558               203.1378
 559               203.5098
 560               203.8820
 561               204.2542
 562               204.6266
 563               204.9990
 564               205.3715
 565               205.7440
 566               206.1167
 567               206.4895
 568               206.8623
 569               207.2352
 570               207.6082
 571               207.9813
 572               208.3545
 573               208.7278
 574               209.1011
 575               209.4746
 576               209.8481
 577               210.2218
 578               210.5955
 579               210.9693
 580               211.3432
 581               211.7172
 582               212.0913
 583               212.4654
 584               212.8397
 585               213.2141
 586               213.5885
 587               213.9631
 588               214.3377
 589               214.7124
 590               215.0873
 591               215.4622
 592               215.8372
 593               216.2123
 594               216.5875
 595               216.9628
 596               217.3382
 597               217.7137
 598               218.0893
 599               218.4650
 600               218.8408
 601               219.2167
 602               219.5927
 603               219.9688
 604               220.3450
 605               220.7213
 606               221.0977
 607               221.4741
 608               221.8507
 609               222.2274
 610               222.6042
 611               222.9811
 612               223.3581
 613               223.7352
 614               224.1124
 615               224.4897
 616               224.8671
 617               225.2447
 618               225.6223
 619               226.0000
 620               226.3778
 621               226.7558
 622               227.1338
 623               227.5120
 624               227.8902
 625               228.2686
 626               228.6471
 627               229.0256
 628               229.4043
 629               229.7831
 630               230.1620
 631               230.5410
 632               230.9202
 633               231.2994
 634               231.6787
 635               232.0582
 636               232.4377
 637               232.8174
 638               233.1972
 639               233.5771
 640               233.9571
 641               234.3372
 642               234.7175
 643               235.0978
 644               235.4783
 645               235.8589
 646               236.2396
 647               236.6204
 648               237.0013
 649               237.3823
 650               237.7635
 651               238.1448
 652               238.5262
 653               238.9077
 654               239.2893
 655               239.6710
 656               240.0529
 657               240.4349
 658               240.8169
 659               241.1992
 660               241.5815
 661               241.9639
 662               242.3465
 663               242.7292
 664               243.1120
 665               243.4949
 666               243.8780
 667               244.2612
 668               244.6445
 669               245.0279
 670               245.4114
 671               245.7951
 672               246.1789
 673               246.5628
 674               246.9468
 675               247.3310
 676               247.7152
 677               248.0997
 678               248.4842
 679               248.8688
 680               249.2536
 681               249.6385
 682               250.0236
 683               250.4087
